Delay [ps] Temperature [K] Temperature error [K]
-1.552 294.9  2.3
-0.552 294.0  2.3
-0.452 294.4  2.3
-0.402 294.5  2.3
-0.352 294.2  2.2
-0.302 294.4  2.2
-0.252 295.2  2.3
-0.202 295.7  2.3
-0.152 296.2  2.3
-0.102 299.7  2.3
-0.052 305.1  2.3
-0.002 310.5  2.3
0.048 318.5  2.3
0.098 328.7  2.3
0.148 339.7  2.3
0.198 350.9  2.3
0.248 360.7  2.3
0.298 372.0  2.4
0.348 380.9  2.4
0.398 388.7  2.4
0.448 391.9  2.4
0.498 398.6  2.4
0.548 403.9  2.4
0.648 409.1  2.4
0.748 411.4  2.4
0.848 417.4  2.4
0.948 419.4  2.4
1.048 421.5  2.4
1.148 423.7  2.4
1.248 422.1  2.4
1.348 423.8  2.4
1.448 425.5  2.4
1.548 425.1  2.4
1.648 425.9  2.4
1.748 426.5  2.5
1.848 426.4  2.4
1.948 426.7  2.5
2.198 427.6  2.5
2.448 427.0  2.5
2.698 428.8  2.5
2.948 429.8  2.5
3.348 432.0  2.6
3.748 431.9  2.7
4.148 434.0  2.7
4.548 435.4  2.7
4.948 436.4  2.8
5.348 433.8  2.7
5.748 434.5  2.7
6.148 432.8  2.6
6.548 430.6  2.6
6.948 431.3  2.5
7.948 425.1  2.5
8.948 422.5  2.4
9.948 418.7  2.4
12.448 420.0  2.5
14.948 422.6  2.5
17.448 417.4  2.4
19.948 413.5  2.4